Time [s],Terminal voltage [V],Current [A],Cycle,Step
0.0,3.5139289370716593,2.3,0.0,0.0
0.0014512310405588708,3.51380427792402,2.3,0.0,0.0
0.0025005954983296635,3.513714317411096,2.3,0.0,0.0
0.004599324413871249,3.513534951310984,2.3,0.0,0.0
0.00879678224495442,3.5131786142499237,2.3,0.0,0.0
0.017191697907120763,3.512475136185152,2.3,0.0,0.0
0.03398152923145345,3.5111031563620267,2.3,0.0,0.0
0.050771360555786134,3.5097661746178197,2.3,0.0,0.0
0.06756119188011882,3.5084623409343014,2.3,0.0,0.0
0.10114085452878419,3.505931217144856,2.3,0.0,0.0
0.13472051717744954,3.503511357288576,2.3,0.0,0.0
0.20187984247478027,3.498984235226688,2.3,0.0,0.0
0.269039167772111,3.4948269758711588,2.3,0.0,0.0
0.3361984930694417,3.490990402880885,2.3,0.0,0.0
0.4033578183667724,3.4874323468292667,2.3,0.0,0.0
0.537676468961434,3.4810261318634685,2.3,0.0,0.0
0.6719951195560954,3.4753823626711173,2.3,0.0,0.0
0.8063137701507568,3.4703093648918815,2.3,0.0,0.0
0.9406324207454182,3.465729629518718,2.3,0.0,0.0
1.0749510713400796,3.4614614506544985,2.3,0.0,0.0
1.209269721934741,3.4577257826608925,2.3,0.0,0.0
1.315906524662803,3.4547872671943836,2.3,0.0,0.0
1.3776355188941036,3.4532037998388603,2.3,0.0,0.0
1.4393645131254043,3.451665541641172,2.3,0.0,0.0
1.5010935073567049,3.4501694312817444,2.3,0.0,0.0
1.6245514958193061,3.4472743823516447,2.3,0.0,0.0
1.7480094842819074,3.4445171004595565,2.3,0.0,0.0
1.9949254612071097,3.4393731070769236,2.3,0.0,0.0
2.241841438132312,3.4346539974173584,2.3,0.0,0.0
2.4887574150575147,3.430290320686108,2.3,0.0,0.0
2.735673391982717,3.4262265570104042,2.3,0.0,0.0
3.2295053458331218,3.4188443736006944,2.3,0.0,0.0
3.723337299683527,3.4122505233774167,2.3,0.0,0.0
4.217169253533932,3.406226575540318,2.3,0.0,0.0
4.711001207384337,3.40074936472281,2.3,0.0,0.0
5.204833161234742,3.395515759517556,2.3,0.0,0.0
5.599740937736711,3.3917952859820613,2.3,0.0,0.0
5.955157936588483,3.388500770004105,2.3,0.0,0.0
6.310574935440255,3.3854314596101744,2.3,0.0,0.0
6.58239069379292,3.383154090322092,2.3,0.0,0.0
6.854206452145585,3.3809493678362275,2.3,0.0,0.0
7.126022210498251,3.3788123576383717,2.3,0.0,0.0
7.669653727203581,3.3747006557011616,2.3,0.0,0.0
8.213285243908912,3.3708062502065896,2.3,0.0,0.0
8.756916760614242,3.367112613232657,2.3,0.0,0.0
9.844179794024903,3.3602637937269124,2.3,0.0,0.0
10.931442827435564,3.3540312303333475,2.3,0.0,0.0
12.018705860846225,3.3483239688758766,2.3,0.0,0.0
13.105968894256886,3.343068087711579,2.3,0.0,0.0
15.280494961078208,3.3336891582145984,2.3,0.0,0.0
17.45502102789953,3.3255614845181087,2.3,0.0,0.0
19.629547094720852,3.3183144614545457,2.3,0.0,0.0
21.804073161542174,3.3119160365612235,2.3,0.0,0.0
23.978599228363496,3.3061868322110204,2.3,0.0,0.0
26.153125295184818,3.30101916627566,2.3,0.0,0.0
28.32765136200614,3.296355791635084,2.3,0.0,0.0
30.502177428827462,3.292147019119586,2.3,0.0,0.0
32.67670349564878,3.288289002705587,2.3,0.0,0.0
34.8512295624701,3.2847496898522137,2.3,0.0,0.0
37.025755629291424,3.2814955167824262,2.3,0.0,0.0
41.37480776293407,3.275780807333333,2.3,0.0,0.0
45.72385989657671,3.2709215374265366,2.3,0.0,0.0
50.072912030219356,3.266776941716576,2.3,0.0,0.0
54.421964163862,3.2632052108549208,2.3,0.0,0.0
58.771016297504644,3.260137534268271,2.3,0.0,0.0
63.12006843114729,3.2574735584831442,2.3,0.0,0.0
67.46912056478993,3.2551793548881136,2.3,0.0,0.0
71.81817269843258,3.253167932037966,2.3,0.0,0.0
76.16722483207522,3.2514625579387566,2.3,0.0,0.0
80.51627696571786,3.249909887982649,2.3,0.0,0.0
84.86532909936051,3.2486215840266452,2.3,0.0,0.0
89.21438123300315,3.247449771449592,2.3,0.0,0.0
93.5634333666458,3.2464954772443293,2.3,0.0,0.0
97.91248550028844,3.245674087515835,2.3,0.0,0.0
102.26153763393108,3.2449199223256606,2.3,0.0,0.0
110.08983147448784,3.2438196966573045,2.3,0.0,0.0
117.91812531504459,3.2429722626845554,2.3,0.0,0.0
125.74641915560134,3.242328998166435,2.3,0.0,0.0
133.5747129961581,3.2418391519162797,2.3,0.0,0.0
149.2313006772716,3.241203856478508,2.3,0.0,0.0
164.8878883583851,3.240857817713822,2.3,0.0,0.0
180.54447603949862,3.2406827285508415,2.3,0.0,0.0
196.20106372061213,3.2405822933711015,2.3,0.0,0.0
211.85765140172563,3.2405181923062267,2.3,0.0,0.0
227.51423908283914,3.240429700007713,2.3,0.0,0.0
243.17082676395265,3.2403118065301815,2.3,0.0,0.0
258.82741444506615,3.2400868480073695,2.3,0.0,0.0
274.4840021261797,3.239843031881638,2.3,0.0,0.0
290.1405898072932,3.2393984298751723,2.3,0.0,0.0
305.79717748840676,3.2387675163210985,2.3,0.0,0.0
321.4537651695203,3.238026264454147,2.3,0.0,0.0
337.11035285063383,3.236988539778521,2.3,0.0,0.0
352.76694053174737,3.2357545147639657,2.3,0.0,0.0
368.4235282128609,3.2341755555055007,2.3,0.0,0.0
384.08011589397444,3.2323475252245952,2.3,0.0,0.0
399.736703575088,3.23026408695584,2.3,0.0,0.0
415.3932912562015,3.2279261974505076,2.3,0.0,0.0
431.04987893731504,3.22537921391111,2.3,0.0,0.0
446.7064666184286,3.222719528424638,2.3,0.0,0.0
462.3630542995421,3.2200991546004376,2.3,0.0,0.0
478.01964198065565,3.2174128759647274,2.3,0.0,0.0
493.6762296617692,3.215104396227615,2.3,0.0,0.0
507.7671585747714,3.2131059149918575,2.3,0.0,0.0
521.8580874877736,3.2113104018608976,2.3,0.0,0.0
535.9490164007757,3.2096800637816294,2.3,0.0,0.0
550.0399453137778,3.208302066075166,2.3,0.0,0.0
564.13087422678,3.2071504015522505,2.3,0.0,0.0
578.2218031397821,3.206141260506178,2.3,0.0,0.0
592.3127320527842,3.205265574484211,2.3,0.0,0.0
606.4036609657863,3.2045883457691238,2.3,0.0,0.0
620.4945898787885,3.2040013594307286,2.3,0.0,0.0
634.5855187917906,3.2034917956803675,2.3,0.0,0.0
648.6764477047927,3.2030923391530495,2.3,0.0,0.0
662.7673766177949,3.202760250713453,2.3,0.0,0.0
676.858305530797,3.2024839030845818,2.3,0.0,0.0
705.0401633568014,3.202068052564652,2.3,0.0,0.0
733.2220211828057,3.201760127803058,2.3,0.0,0.0
761.4038790088101,3.2015295496000555,2.3,0.0,0.0
789.5857368348145,3.2013407142015957,2.3,0.0,0.0
817.7675946608189,3.2011813646936504,2.3,0.0,0.0
845.9494524868232,3.2010326866306924,2.3,0.0,0.0
874.1313103128276,3.200889461255,2.3,0.0,0.0
902.313168138832,3.200743267409635,2.3,0.0,0.0
930.4950259648364,3.200592478078497,2.3,0.0,0.0
986.858741616845,3.200258666043163,2.3,0.0,0.0
1043.2224572688538,3.1998678600844856,2.3,0.0,0.0
1099.5861729208625,3.1993996619638745,2.3,0.0,0.0
1212.3136042248798,3.1981260208682674,2.3,0.0,0.0
1313.7682923984953,3.19635980838129,2.3,0.0,0.0
1405.0775117547494,3.19390777612832,2.3,0.0,0.0
1487.255809175378,3.190573260125233,2.3,0.0,0.0
1561.2162768539438,3.186219164777119,2.3,0.0,0.0
1635.1767445325095,3.180150283106236,2.3,0.0,0.0
1709.1372122110752,3.172004166645455,2.3,0.0,0.0
1756.1107756360652,3.1657872315463584,2.3,0.0,0.0
1803.0843390610553,3.158839619688482,2.3,0.0,0.0
1850.0579024860454,3.1513921922406194,2.3,0.0,0.0
1892.3341095685364,3.1445038697385828,2.3,0.0,0.0
1934.6103166510275,3.137676107180496,2.3,0.0,0.0
1976.8865237335185,3.131125627400218,2.3,0.0,0.0
2019.1627308160096,3.125011161767538,2.3,0.0,0.0
2061.4389378985006,3.1194154369770524,2.3,0.0,0.0
2103.7151449809917,3.114337879067677,2.3,0.0,0.0
2145.9913520634827,3.109712615773313,2.3,0.0,0.0
2188.267559145974,3.1053872164828933,2.3,0.0,0.0
2230.543766228465,3.101093190319386,2.3,0.0,0.0
2272.819973310956,3.0964487361134103,2.3,0.0,0.0
2321.2730366086234,3.0899739629213494,2.3,0.0,0.0
2369.726099906291,3.0810380024787802,2.3,0.0,0.0
2418.1791632039585,3.067769854884708,2.3,0.0,0.0
2466.632226501626,3.047979887892462,2.3,0.0,0.0
2498.9393702920534,3.0304272411349005,2.3,0.0,0.0
2531.2465140824806,3.0093687826373454,2.3,0.0,0.0
2544.3185994368428,2.99999999999998,2.3,0.0,0.0
2544.318599436843,3.084947311582007,0.0,0.0,1.0
2544.336748948036,3.085072540478468,0.0,0.0,1.0
2544.352220429559,3.0851790930437115,0.0,0.0,1.0
2544.383163392605,3.0853914598761896,0.0,0.0,1.0
2544.4450493186973,3.0858134184132835,0.0,0.0,1.0
2544.568821170882,3.0866468377393765,0.0,0.0,1.0
2544.8163648752516,3.0882742572409425,0.0,0.0,1.0
2545.063908579621,3.0898609068384757,0.0,0.0,1.0
2545.3114522839905,3.091408436453707,0.0,0.0,1.0
2545.8065396927295,3.0944082892896922,0.0,0.0,1.0
2546.3016271014685,3.0972693001846037,0.0,0.0,1.0
2547.291801918946,3.1025908903816344,0.0,0.0,1.0
2548.2819767364235,3.107420135258498,0.0,0.0,1.0
2549.272151553901,3.111806514710408,0.0,0.0,1.0
2550.2623263713785,3.115796270902304,0.0,0.0,1.0
2552.2426760063336,3.122740396897492,0.0,0.0,1.0
2554.2230256412886,3.128550082283164,0.0,0.0,1.0
2556.2033752762436,3.133454257945406,0.0,0.0,1.0
2558.1837249111986,3.1376589981156604,0.0,0.0,1.0
2560.1640745461536,3.1412468680023027,0.0,0.0,1.0
2562.1444241811087,3.144410467290645,0.0,0.0,1.0
2563.751781314413,3.1466557099491355,0.0,0.0,1.0
2565.542584459879,3.1488942766207058,0.0,0.0,1.0
2567.333387605345,3.1508983561153876,0.0,0.0,1.0
2569.1241907508106,3.1526994512485484,0.0,0.0,1.0
2570.9149938962764,3.154326034968747,0.0,0.0,1.0
2574.496600187208,3.157141671970261,0.0,0.0,1.0
2578.0782064781397,3.159491651944749,0.0,0.0,1.0
2581.6598127690713,3.1614910030791386,0.0,0.0,1.0
2585.241419060003,3.163210403184916,0.0,0.0,1.0
2588.8230253509346,3.1647193821366972,0.0,0.0,1.0
2593.1607180583424,3.166299994116823,0.0,0.0,1.0
2597.49841076575,3.167655218762607,0.0,0.0,1.0
2606.1737961805657,3.1698997652945726,0.0,0.0,1.0
2612.36535763782,3.171215434887278,0.0,0.0,1.0
2618.5569190950746,3.172351895218585,0.0,0.0,1.0
2624.748480552329,3.173353107844484,0.0,0.0,1.0
2630.9400420095835,3.1742436634562523,0.0,0.0,1.0
2637.131603466838,3.175042596256132,0.0,0.0,1.0
2649.514726381347,3.176431992586046,0.0,0.0,1.0
2661.897849295856,3.1776132585555406,0.0,0.0,1.0
2674.280972210365,3.178645540644454,0.0,0.0,1.0
2686.6640951248737,3.17956705475361,0.0,0.0,1.0
2699.0472180393826,3.1804032471372263,0.0,0.0,1.0
2711.4303409538916,3.1811724307294185,0.0,0.0,1.0
2723.8134638684005,3.181886384683388,0.0,0.0,1.0
2748.5797096974184,3.1831869212269464,0.0,0.0,1.0
2773.3459555264362,3.1843548903553263,0.0,0.0,1.0
2798.112201355454,3.1854219073085055,0.0,0.0,1.0
2822.878447184472,3.186410925170117,0.0,0.0,1.0
2847.64469301349,3.1873321528006238,0.0,0.0,1.0
2872.4109388425077,3.188196522621862,0.0,0.0,1.0
2921.9434305005434,3.189769933762163,0.0,0.0,1.0
2966.5226729927754,3.191038815764116,0.0,0.0,1.0
3011.1019154850073,3.192188075283112,0.0,0.0,1.0
3055.6811579772393,3.193228869049415,0.0,0.0,1.0
3100.2604004694713,3.1941725735751545,0.0,0.0,1.0
3144.8396429617032,3.1950286348933306,0.0,0.0,1.0
3189.418885453935,3.1958044541108075,0.0,0.0,1.0
3233.998127946167,3.196507874234286,0.0,0.0,1.0
3323.156612930631,3.1977243393950365,0.0,0.0,1.0
3403.3992494166487,3.198626494517738,0.0,0.0,1.0
3483.641885902666,3.1993775003090694,0.0,0.0,1.0
3563.8845223886838,3.1999946140066493,0.0,0.0,1.0
3644.1271588747013,3.200526204832787,0.0,0.0,1.0
3724.369795360719,3.2009548820686065,0.0,0.0,1.0
3804.6124318467364,3.2013039729785593,0.0,0.0,1.0
3884.855068332754,3.2016072331950225,0.0,0.0,1.0
3965.0977048187715,3.201852819369394,0.0,0.0,1.0
4045.340341304789,3.202059157408852,0.0,0.0,1.0
4125.582977790807,3.2022136984275944,0.0,0.0,1.0
4205.825614276824,3.2023535038600768,0.0,0.0,1.0
4286.068250762842,3.2024730473320817,0.0,0.0,1.0
4366.310887248859,3.202568086880015,0.0,0.0,1.0
4446.553523734877,3.2026464298247115,0.0,0.0,1.0
4526.796160220894,3.2027109203943107,0.0,0.0,1.0
4687.281433192929,3.202806498364783,0.0,0.0,1.0
4847.7667061649645,3.202870708598627,0.0,0.0,1.0
5016.491787932238,3.202918019153155,0.0,0.0,1.0
5168.344361522784,3.2029470362671564,0.0,0.0,1.0
5320.19693511333,3.202966985679279,0.0,0.0,1.0
5472.049508703876,3.202980590484999,0.0,0.0,1.0
5623.902082294422,3.2029898273842354,0.0,0.0,1.0
5927.607229475515,3.202999526931017,0.0,0.0,1.0
6144.318599436843,3.2030029932177047,0.0,0.0,1.0
6144.318599436844,3.2772900794048496,-2.3,0.0,2.0
6144.337294006736,3.277321233968541,-2.3,0.0,2.0
6144.351746916174,3.2773452414522155,-2.3,0.0,2.0
6144.380652735052,3.2773930159301923,-2.3,0.0,2.0
6144.438464372806,3.277487770678092,-2.3,0.0,2.0
6144.554087648316,3.2776748038776082,-2.3,0.0,2.0
6144.785334199337,3.278041066250751,-2.3,0.0,2.0
6145.016580750357,3.2784011052188244,-2.3,0.0,2.0
6145.247827301378,3.278755584162448,-2.3,0.0,2.0
6145.710320403418,3.279453809272789,-2.3,0.0,2.0
6146.172813505459,3.2801351646898738,-2.3,0.0,2.0
6146.6353066075,3.2807994709449035,-2.3,0.0,2.0
6147.56029281158,3.2820833350342244,-2.3,0.0,2.0
6148.485279015661,3.2833100802291604,-2.3,0.0,2.0
6149.410265219742,3.284484373927209,-2.3,0.0,2.0
6150.335251423822,3.2856101503336985,-2.3,0.0,2.0
6152.185223831984,3.2877265119306145,-2.3,0.0,2.0
6154.035196240146,3.2896833167136963,-2.3,0.0,2.0
6155.8851686483085,3.2915043696179573,-2.3,0.0,2.0
6157.735141056471,3.293198648653906,-2.3,0.0,2.0
6159.585113464633,3.2947870842481555,-2.3,0.0,2.0
6161.435085872795,3.2962679077966937,-2.3,0.0,2.0
6162.7429826905,3.2972691019224554,-2.3,0.0,2.0
6164.050879508205,3.29822919626579,-2.3,0.0,2.0
6165.35877632591,3.2991476830733673,-2.3,0.0,2.0
6166.897156134662,3.3001833488509087,-2.3,0.0,2.0
6168.435535943413,3.3011747118742814,-2.3,0.0,2.0
6169.973915752164,3.3021241150780667,-2.3,0.0,2.0
6171.512295560916,3.3030345476781893,-2.3,0.0,2.0
6174.589055178418,3.304748164992647,-2.3,0.0,2.0
6177.66581479592,3.3063360327482014,-2.3,0.0,2.0
6180.742574413422,3.30781495615948,-2.3,0.0,2.0
6183.8193340309235,3.309198351467173,-2.3,0.0,2.0
6186.896093648425,3.3104951525538997,-2.3,0.0,2.0
6189.972853265927,3.3117139282759194,-2.3,0.0,2.0
6193.049612883429,3.3128624414208847,-2.3,0.0,2.0
6196.126372500931,3.3139469621779334,-2.3,0.0,2.0
6199.203132118433,3.3149729073937904,-2.3,0.0,2.0
6202.279891735935,3.315944538986293,-2.3,0.0,2.0
6208.43341097094,3.317741853760886,-2.3,0.0,2.0
6213.81388960767,3.319171022756198,-2.3,0.0,2.0
6219.1943682444,3.32048283494032,-2.3,0.0,2.0
6224.57484688113,3.321689789482291,-2.3,0.0,2.0
6229.95532551786,3.3228023206182793,-2.3,0.0,2.0
6240.716282791321,3.324779572440481,-2.3,0.0,2.0
6251.477240064782,3.3264747559981602,-2.3,0.0,2.0
6262.238197338243,3.3279346453304197,-2.3,0.0,2.0
6272.9991546117035,3.3291959327744918,-2.3,0.0,2.0
6283.760111885164,3.330289758664213,-2.3,0.0,2.0
6294.521069158625,3.3312413538621195,-2.3,0.0,2.0
6316.042983705547,3.332798571254563,-2.3,0.0,2.0
6335.412706797777,3.3338902532810346,-2.3,0.0,2.0
6354.782429890007,3.3347597635922503,-2.3,0.0,2.0
6374.152152982237,3.335457307318614,-2.3,0.0,2.0
6393.5218760744665,3.3360218156395893,-2.3,0.0,2.0
6412.891599166696,3.3364828564944826,-2.3,0.0,2.0
6432.261322258926,3.336862490116859,-2.3,0.0,2.0
6471.000768443385,3.3374429985142178,-2.3,0.0,2.0
6509.740214627844,3.337863987542767,-2.3,0.0,2.0
6544.605716193857,3.33815294236629,-2.3,0.0,2.0
6579.47121775987,3.338390038939729,-2.3,0.0,2.0
6614.336719325884,3.3385975708894,-2.3,0.0,2.0
6649.202220891897,3.3387841921021364,-2.3,0.0,2.0
6684.06772245791,3.3389613106626133,-2.3,0.0,2.0
6718.933224023924,3.3391392110523803,-2.3,0.0,2.0
6753.798725589937,3.339321469366191,-2.3,0.0,2.0
6788.66422715595,3.3395161381785226,-2.3,0.0,2.0
6823.529728721964,3.339731742307894,-2.3,0.0,2.0
6874.897269883777,3.3401139512325573,-2.3,0.0,2.0
6926.26481104559,3.3406311953158534,-2.3,0.0,2.0
6972.495598091222,3.3413225227245476,-2.3,0.0,2.0
7012.8145581174,3.3422271197710796,-2.3,0.0,2.0
7049.101622140961,3.3434254966772876,-2.3,0.0,2.0
7081.759979762165,3.3449657580582346,-2.3,0.0,2.0
7111.152501621249,3.3468576560644134,-2.3,0.0,2.0
7140.545023480333,3.349342952820825,-2.3,0.0,2.0
7164.640986251142,3.351872976952296,-2.3,0.0,2.0
7188.736949021951,3.35484398609631,-2.3,0.0,2.0
7210.423315515679,3.3578417998287353,-2.3,0.0,2.0
7232.109682009407,3.361053486344294,-2.3,0.0,2.0
7253.796048503135,3.3643476414117037,-2.3,0.0,2.0
7275.482414996864,3.367584550632238,-2.3,0.0,2.0
7297.168781490592,3.3706375621836173,-2.3,0.0,2.0
7318.85514798432,3.373408827529344,-2.3,0.0,2.0
7340.541514478048,3.3758448825010996,-2.3,0.0,2.0
7362.227880971776,3.377927873567814,-2.3,0.0,2.0
7383.914247465505,3.379672132359569,-2.3,0.0,2.0
7405.600613959233,3.3811170612580503,-2.3,0.0,2.0
7427.286980452961,3.3823076632636058,-2.3,0.0,2.0
7448.973346946689,3.3832856896374803,-2.3,0.0,2.0
7492.346079934145,3.384780670364721,-2.3,0.0,2.0
7524.827281381332,3.385627852344226,-2.3,0.0,2.0
7557.308482828519,3.386333909974324,-2.3,0.0,2.0
7589.789684275706,3.3869462125774827,-2.3,0.0,2.0
7622.270885722894,3.3875005775862297,-2.3,0.0,2.0
7654.752087170081,3.388029192745427,-2.3,0.0,2.0
7698.5383212937395,3.3887257859098305,-2.3,0.0,2.0
7742.324555417398,3.38942826489259,-2.3,0.0,2.0
7786.110789541057,3.39014510628192,-2.3,0.0,2.0
7829.897023664716,3.390891319698362,-2.3,0.0,2.0
7873.683257788374,3.3916700902450954,-2.3,0.0,2.0
7917.469491912033,3.392489470158666,-2.3,0.0,2.0
7961.255726035692,3.3933533536566935,-2.3,0.0,2.0
8005.04196015935,3.3942660196855954,-2.3,0.0,2.0
8063.886897535169,3.3955796809285417,-2.3,0.0,2.0
8122.731834910987,3.3970098662527466,-2.3,0.0,2.0
8162.495123251571,3.398056449076564,-2.3,0.0,2.0
8202.258411592156,3.399181102989761,-2.3,0.0,2.0
8238.045371098682,3.4002691646164114,-2.3,0.0,2.0
8273.832330605208,3.4014406442431318,-2.3,0.0,2.0
8304.66378623186,3.4025262813732358,-2.3,0.0,2.0
8332.412096295848,3.4035744307795426,-2.3,0.0,2.0
8357.385575353437,3.404587347595474,-2.3,0.0,2.0
8379.861706505268,3.405567715908494,-2.3,0.0,2.0
8402.337837657098,3.40662891677614,-2.3,0.0,2.0
8422.566355693745,3.40767414731601,-2.3,0.0,2.0
8442.794873730392,3.4088348411822214,-2.3,0.0,2.0
8461.000539963374,3.410023970395668,-2.3,0.0,2.0
8477.385639573058,3.411280536197664,-2.3,0.0,2.0
8493.770739182743,3.412829955538059,-2.3,0.0,2.0
8508.09235671171,3.4145882873684847,-2.3,0.0,2.0
8520.98181248778,3.416688970086337,-2.3,0.0,2.0
8532.582322686245,3.41920442973365,-2.3,0.0,2.0
8544.18283288471,3.4225547686896682,-2.3,0.0,2.0
8554.623292063327,3.426545516982401,-2.3,0.0,2.0
8565.063751241943,3.431783152996974,-2.3,0.0,2.0
8575.50421042056,3.4386975530189092,-2.3,0.0,2.0
8585.944669599177,3.4478730195124445,-2.3,0.0,2.0
8595.341082859934,3.4587481544603853,-2.3,0.0,2.0
8603.797854794613,3.471266399283012,-2.3,0.0,2.0
8612.254626729293,3.487139029889998,-2.3,0.0,2.0
8619.865721470505,3.505052862546258,-2.3,0.0,2.0
8627.476816211718,3.5272990784821534,-2.3,0.0,2.0
8634.326801478808,3.551929907801401,-2.3,0.0,2.0
8640.49178821919,3.5786506320236695,-2.3,0.0,2.0
8644.672028082774,3.5996607267973415,-2.3,0.0,2.0
8647.542385764425,3.6156347834122764,-2.3,0.0,2.0
8650.412743446077,3.632996684684465,-2.3,0.0,2.0
8653.283101127729,3.651873562797415,-2.3,0.0,2.0
8656.15345880938,3.6724068716519764,-2.3,0.0,2.0
8659.023816491032,3.694752425332373,-2.3,0.0,2.0
8664.764531854335,3.745630179170857,-2.3,0.0,2.0
8669.931175681308,3.799808205286123,-2.3,0.0,2.0
8673.540914101912,3.843715115083457,-2.3,0.0,2.0
8676.160436085152,3.8803985871085964,-2.3,0.0,2.0
8676.630899478247,3.8876824287467735,-2.3,0.0,2.0
8677.571826264435,3.9034210189419696,-2.3,0.0,2.0
8678.512753050623,3.922036578147326,-2.3,0.0,2.0
8678.549270843116,3.9230493477083455,-2.3,0.0,2.0
8678.622306428098,3.9247869172947016,-2.3,0.0,2.0
8678.678889999508,3.926174877881725,-2.3,0.0,2.0
8678.792057142327,3.92908015855909,-2.3,0.0,2.0
8678.905224285147,3.9322218085071645,-2.3,0.0,2.0
8679.007074713683,3.9352289375548786,-2.3,0.0,2.0
8679.10892514222,3.9385272953301276,-2.3,0.0,2.0
8679.200590527904,3.941807980661431,-2.3,0.0,2.0
8679.283089375018,3.9450736944448597,-2.3,0.0,2.0
8679.35733833742,3.948349375658357,-2.3,0.0,2.0
8679.422505234534,3.9515667559904157,-2.3,0.0,2.0
8679.479852117161,3.9547436825125186,-2.3,0.0,2.0
8679.530268733934,3.9579299602936775,-2.3,0.0,2.0
8679.57201473055,3.9609081337154346,-2.3,0.0,2.0
8679.609586127503,3.963865941170364,-2.3,0.0,2.0
8679.64340038476,3.966842175859381,-2.3,0.0,2.0
8679.673833216293,3.9698390515339006,-2.3,0.0,2.0
8679.701222764672,3.9728566386225355,-2.3,0.0,2.0
8679.725873358213,3.975934903663471,-2.3,0.0,2.0
